# RELION postprocess; version 3.1-devel-commit-6bcdde
# --mask MaskCreate/job020/mask.mrc --i Refine3D/job025/run_half1_class001_unfil.mrc --o PostProcess/job026/postprocess --angpix 1.244 --auto_bfac --autob_lowres 10 --pipeline_control PostProcess/job026/ 

# version 30001

data_general

_rlnFinalResolution                           2.976299
_rlnBfactorUsedForSharpening                 -34.83922
_rlnUnfilteredMapHalf1                    Refine3D/job025/run_half1_class001_unfil.mrc
_rlnUnfilteredMapHalf2                    Refine3D/job025/run_half2_class001_unfil.mrc
_rlnMaskName                              MaskCreate/job020/mask.mrc
_rlnRandomiseFrom                             9.650424
_rlnFittedSlopeGuinierPlot                    -8.70981
_rlnFittedInterceptGuinierPlot               -12.55986
_rlnCorrelationFitGuinierPlot                 0.643977
 

# version 30001

data_fsc

loop_ 
_rlnSpectralIndex #1 
_rlnResolution #2 
_rlnAngstromResolution #3 
_rlnFourierShellCorrelationCorrected #4 
_rlnFourierShellCorrelationUnmaskedMaps #5 
_rlnFourierShellCorrelationMaskedMaps #6 
_rlnCorrectedFourierShellCorrelationPhaseRandomizedMaskedMaps #7 
           0     0.001001   999.000000     1.000000     1.000000     1.000000     1.000000 
           1     0.003140   318.463989     1.000000     0.999163     1.000000     1.000000 
           2     0.006280   159.231995     0.999999     0.999279     0.999999     0.999999 
           3     0.009420   106.154663     0.999992     0.998316     0.999992     0.999993 
           4     0.012560    79.615997     0.999935     0.996847     0.999935     0.999938 
           5     0.015700    63.692798     0.999851     0.997294     0.999851     0.999855 
           6     0.018840    53.077332     0.999579     0.990885     0.999579     0.999596 
           7     0.021981    45.494856     0.999668     0.991872     0.999668     0.999678 
           8     0.025121    39.807999     0.999726     0.994555     0.999726     0.999717 
           9     0.028261    35.384888     0.999616     0.991776     0.999616     0.999584 
          10     0.031401    31.846399     0.999540     0.989518     0.999540     0.999534 
          11     0.034541    28.951272     0.999427     0.986482     0.999427     0.999430 
          12     0.037681    26.538666     0.999272     0.983193     0.999272     0.999248 
          13     0.040821    24.497230     0.998911     0.979729     0.998911     0.998878 
          14     0.043961    22.747428     0.998639     0.974998     0.998639     0.998610 
          15     0.047101    21.230933     0.997877     0.967371     0.997877     0.997827 
          16     0.050241    19.903999     0.996367     0.946606     0.996367     0.996176 
          17     0.053381    18.733176     0.994002     0.911972     0.994002     0.993807 
          18     0.056521    17.692444     0.993179     0.874249     0.993179     0.993262 
          19     0.059661    16.761263     0.992321     0.846488     0.992321     0.992535 
          20     0.062801    15.923199     0.992778     0.850097     0.992778     0.993018 
          21     0.065942    15.164952     0.991274     0.865258     0.991274     0.991610 
          22     0.069082    14.475636     0.991763     0.893876     0.991763     0.991888 
          23     0.072222    13.846260     0.993370     0.905109     0.993370     0.993218 
          24     0.075362    13.269333     0.993805     0.902571     0.993805     0.993533 
          25     0.078502    12.738560     0.992588     0.879037     0.992588     0.992741 
          26     0.081642    12.248615     0.989401     0.842917     0.989401     0.989883 
          27     0.084782    11.794963     0.987362     0.821061     0.987362     0.987656 
          28     0.087922    11.373714     0.987727     0.809769     0.987727     0.987453 
          29     0.091062    10.981517     0.988230     0.827316     0.988230     0.987295 
          30     0.094202    10.615466     0.989679     0.842691     0.989679     0.988055 
          31     0.097342    10.273032     0.988855     0.837334     0.988855     0.985423 
          32     0.100482     9.952000     0.986381     0.815945     0.986381     0.973208 
          33     0.103622     9.650424     0.983219     0.772883     0.983219     0.924978 
          34     0.106762     9.366588     0.980602     0.715809     0.980602     0.718385 
          35     0.109903     9.098971     0.960253     0.686957     0.975942     0.394723 
          36     0.113043     8.846222     0.960777     0.666298     0.971843     0.282113 
          37     0.116183     8.607135     0.959111     0.654411     0.968169     0.221535 
          38     0.119323     8.380631     0.957278     0.621832     0.965069     0.182365 
          39     0.122463     8.165743     0.958161     0.614430     0.963395     0.125102 
          40     0.125603     7.961600     0.954529     0.576659     0.959000     0.098316 
          41     0.128743     7.767414     0.946754     0.568426     0.952443     0.106836 
          42     0.131883     7.582476     0.939920     0.523724     0.945750     0.097041 
          43     0.135023     7.406139     0.938822     0.481687     0.942607     0.061863 
          44     0.138163     7.237818     0.942582     0.482315     0.943909     0.023110 
          45     0.141303     7.076978     0.943105     0.495327     0.944327     0.021486 
          46     0.144443     6.923130     0.938292     0.476751     0.939656     0.022101 
          47     0.147583     6.775830     0.932382     0.455185     0.933239     0.012674 
          48     0.150723     6.634666     0.927548     0.483133     0.929289     0.024031 
          49     0.153864     6.499265     0.919137     0.436462     0.920743     0.019866 
          50     0.157004     6.369280     0.917786     0.379954     0.919330     0.018783 
          51     0.160144     6.244392     0.916198     0.410353     0.916761     0.006716 
          52     0.163284     6.124307     0.912518     0.399082     0.913550     0.011792 
          53     0.166424     6.008755     0.912637     0.414290     0.914786     0.024602 
          54     0.169564     5.897481     0.910669     0.403055     0.913088     0.027075 
          55     0.172704     5.790254     0.912924     0.418136     0.914279     0.015560 
          56     0.175844     5.686857     0.915406     0.415828     0.916273     0.010243 
          57     0.178984     5.587088     0.918842     0.431700     0.919500     0.008115 
          58     0.182124     5.490758     0.918647     0.389766     0.919202     0.006824 
          59     0.185264     5.397695     0.918255     0.427368     0.918283 3.420086e-04 
          60     0.188404     5.307733     0.918903     0.420971     0.918115     -0.00972 
          61     0.191544     5.220721     0.920931     0.410304     0.919967     -0.01219 
          62     0.194684     5.136516     0.917456     0.445109     0.916735     -0.00874 
          63     0.197825     5.054984     0.907720     0.429240     0.906688     -0.01118 
          64     0.200965     4.976000     0.902786     0.354490     0.902265     -0.00536 
          65     0.204105     4.899446     0.910692     0.423642     0.907936     -0.03085 
          66     0.207245     4.825212     0.914275     0.440796     0.911957     -0.02704 
          67     0.210385     4.753194     0.912008     0.394494     0.911831     -0.00201 
          68     0.213525     4.683294     0.912210     0.420793     0.912517     0.003502 
          69     0.216665     4.615420     0.914904     0.444235     0.914135     -0.00903 
          70     0.219805     4.549486     0.909504     0.398582     0.908196     -0.01445 
          71     0.222945     4.485408     0.905721     0.376297     0.905506     -0.00228 
          72     0.226085     4.423111     0.902677     0.393237     0.902702 2.595992e-04 
          73     0.229225     4.362520     0.888093     0.357563     0.888991     0.008024 
          74     0.232365     4.303567     0.870277     0.313055     0.869051     -0.00945 
          75     0.235505     4.246187     0.850911     0.280545     0.848518     -0.01605 
          76     0.238646     4.190316     0.847023     0.254612     0.845075     -0.01273 
          77     0.241786     4.135896     0.837062     0.255437     0.835924     -0.00699 
          78     0.244926     4.082872     0.813453     0.218086     0.812427     -0.00550 
          79     0.248066     4.031190     0.796485     0.207887     0.795679     -0.00396 
          80     0.251206     3.980800     0.780923     0.197739     0.779881     -0.00476 
          81     0.254346     3.931654     0.756938     0.180846     0.754780     -0.00888 
          82     0.257486     3.883707     0.726922     0.168011     0.726383     -0.00197 
          83     0.260626     3.836916     0.709968     0.146162     0.709801 -5.73590e-04 
          84     0.263766     3.791238     0.694232     0.128140     0.692802     -0.00468 
          85     0.266906     3.746635     0.686719     0.123017     0.681563     -0.01646 
          86     0.270046     3.703070     0.659061     0.107704     0.656432     -0.00771 
          87     0.273186     3.660506     0.624981     0.093088     0.628526     0.009455 
          88     0.276326     3.618909     0.598182     0.107836     0.604352     0.015357 
          89     0.279466     3.578247     0.576531     0.067010     0.577546     0.002397 
          90     0.282607     3.538489     0.561006     0.081985     0.559266     -0.00397 
          91     0.285747     3.499604     0.531873     0.074253     0.530103     -0.00378 
          92     0.288887     3.461565     0.495687     0.071063     0.490607     -0.01007 
          93     0.292027     3.424344     0.476637     0.066109     0.477654     0.001942 
          94     0.295167     3.387915     0.453771     0.062861     0.456515     0.005024 
          95     0.298307     3.352253     0.425906     0.051226     0.427247     0.002335 
          96     0.301447     3.317333     0.399225     0.047961     0.395094     -0.00688 
          97     0.304587     3.283134     0.388770     0.050766     0.379537     -0.01511 
          98     0.307727     3.249633     0.359269     0.029887     0.351795     -0.01166 
          99     0.310867     3.216808     0.340702     0.039705     0.336461     -0.00643 
         100     0.314007     3.184640     0.327875     0.022894     0.328136 3.885664e-04 
         101     0.317147     3.153109     0.288854     0.029082     0.283114     -0.00807 
         102     0.320287     3.122196     0.235381     0.026993     0.235013 -4.81222e-04 
         103     0.323427     3.091883     0.200577     0.012363     0.206717     0.007680 
         104     0.326568     3.062154     0.194180     0.022719     0.193896 -3.52915e-04 
         105     0.329708     3.032990     0.192188     0.016460     0.190853     -0.00165 
         106     0.332848     3.004377     0.168027     0.014625     0.163942     -0.00491 
         107     0.335988     2.976299     0.154856     0.017388     0.148774     -0.00720 
         108     0.339128     2.948741     0.138267     0.022728     0.138650 4.435968e-04 
         109     0.342268     2.921688     0.132941     0.004285     0.136547     0.004158 
         110     0.345408     2.895127     0.105489     0.010272     0.108706     0.003597 
         111     0.348548     2.869045     0.093161     -0.00321     0.096282     0.003441 
         112     0.351688     2.843428     0.097330     0.013204     0.101063     0.004136 
         113     0.354828     2.818265     0.093195     0.011756     0.092649 -6.02171e-04 
         114     0.357968     2.793544     0.085285     0.014500     0.090339     0.005524 
         115     0.361108     2.769252     0.061014 -6.77702e-04     0.069079     0.008590 
         116     0.364248     2.745379     0.025442     0.006274     0.033228     0.007990 
         117     0.367388     2.721914     0.028545 6.929330e-04     0.029818     0.001311 
         118     0.370529     2.698847     0.043642     0.003605     0.040841     -0.00293 
         119     0.373669     2.676168     0.051174     0.010504     0.047450     -0.00392 
         120     0.376809     2.653867     0.034911     0.005917     0.035410 5.169944e-04 
         121     0.379949     2.631934     0.028064     -0.00572     0.033067     0.005147 
         122     0.383089     2.610361     0.032584     0.010090     0.043473     0.011255 
         123     0.386229     2.589138     0.032540     0.003574     0.037420     0.005044 
         124     0.389369     2.568258     0.021196     0.004774     0.025304     0.004197 
         125     0.392509     2.547712     0.006534 1.726206e-04     0.015520     0.009045 
         126     0.395649     2.527492 7.683456e-04     -0.00284     0.010504     0.009743 
         127     0.398789     2.507590     0.003641     0.007391     0.019375     0.015791 
         128     0.401929     2.488000     0.006775     -0.00133     0.020904     0.014225 
 

# version 30001

data_guinier

loop_ 
_rlnResolutionSquared #1 
_rlnLogAmplitudesOriginal #2 
_rlnLogAmplitudesWeighted #3 
_rlnLogAmplitudesSharpened #4 
_rlnLogAmplitudesIntercept #5 
    0.000000     -8.73430     -8.73430     -8.73430    -12.55986 
9.860055e-06     -8.46172     -8.46172     -8.46156    -12.55986 
3.944022e-05     -8.12159     -8.12159     -8.12117    -12.55986 
8.874050e-05     -9.21214     -9.21215     -9.21132    -12.55986 
1.577609e-04     -9.66274     -9.66276     -9.66134    -12.55986 
2.465014e-04     -9.95318     -9.95321     -9.95101    -12.55986 
3.549620e-04    -10.66626    -10.66637    -10.66318    -12.55986 
4.831427e-04    -10.78739    -10.78748    -10.78320    -12.55986 
6.310435e-04    -10.81203    -10.81210    -10.80661    -12.55986 
7.986645e-04    -11.02294    -11.02303    -11.01602    -12.55986 
9.860055e-04    -11.33552    -11.33563    -11.32687    -12.55986 
    0.001193    -11.56865    -11.56879    -11.55826    -12.55986 
    0.001420    -11.65783    -11.65801    -11.64559    -12.55986 
    0.001666    -11.83743    -11.83770    -11.82310    -12.55986 
    0.001933    -11.93118    -11.93153    -11.91455    -12.55986 
    0.002219    -12.05691    -12.05744    -12.03809    -12.55986 
    0.002524    -12.24476    -12.24567    -12.22372    -12.55986 
    0.002850    -12.31584    -12.31735    -12.29245    -12.55986 
    0.003195    -12.25142    -12.25313    -12.22513    -12.55986 
    0.003559    -12.19554    -12.19747    -12.16632    -12.55986 
    0.003944    -12.20107    -12.20289    -12.16849    -12.55986 
    0.004348    -12.36267    -12.36486    -12.32691    -12.55986 
    0.004772    -12.46753    -12.46961    -12.42793    -12.55986 
    0.005216    -12.45069    -12.45236    -12.40682    -12.55986 
    0.005679    -12.45806    -12.45961    -12.41011    -12.55986 
    0.006163    -12.50095    -12.50282    -12.44908    -12.55986 
    0.006665    -12.54058    -12.54325    -12.48507    -12.55986 
    0.007188    -12.54719    -12.55038    -12.48765    -12.55986 
    0.007730    -12.51824    -12.52133    -12.45389    -12.55986 
    0.008292    -12.51681    -12.51978    -12.44741    -12.55986 
    0.008874    -12.51876    -12.52136    -12.44394    -12.55986 
    0.009476    -12.53527    -12.53808    -12.45544    -12.55986 
    0.010097    -12.60492    -12.60836    -12.52036    -12.55986 
    0.010738    -12.69861    -12.70286    -12.60930    -12.55986 
    0.011398    -12.75319    -12.75811    -12.65876    -12.55986 
    0.012079    -12.80304    -12.81328    -12.70799    -12.55986 
    0.012779    -12.84887    -12.85897    -12.74757    -12.55986 
    0.013498    -12.88305    -12.89360    -12.77591    -12.55986 
    0.014238    -12.88123    -12.89227    -12.76813    -12.55986 
    0.014997    -12.89205    -12.90285    -12.77214    -12.55986 
    0.015776    -12.91781    -12.92958    -12.79215    -12.55986 
    0.016575    -12.96287    -12.97674    -12.83230    -12.55986 
    0.017393    -13.00343    -13.01916    -12.86752    -12.55986 
    0.018231    -13.03180    -13.04783    -12.88890    -12.55986 
    0.019089    -13.00750    -13.02250    -12.85610    -12.55986 
    0.019967    -13.00149    -13.01635    -12.84229    -12.55986 
    0.020864    -13.01162    -13.02780    -12.84591    -12.55986 
    0.021781    -13.03878    -13.05658    -12.86684    -12.55986 
    0.022718    -13.01532    -13.03448    -12.83659    -12.55986 
    0.023674    -13.01876    -13.04029    -12.83399    -12.55986 
    0.024650    -13.02705    -13.04896    -12.83409    -12.55986 
    0.025646    -13.03223    -13.05459    -12.83106    -12.55986 
    0.026662    -13.03087    -13.05428    -12.82192    -12.55986 
    0.027697    -12.98230    -13.00568    -12.76425    -12.55986 
    0.028752    -12.98153    -13.00547    -12.75488    -12.55986 
    0.029827    -12.96558    -12.98887    -12.72898    -12.55986 
    0.030921    -12.91958    -12.94217    -12.67277    -12.55986 
    0.032035    -12.90322    -12.92483    -12.64570    -12.55986 
    0.033169    -12.92010    -12.94176    -12.65271    -12.55986 
    0.034323    -12.90004    -12.92182    -12.62276    -12.55986 
    0.035496    -12.87288    -12.89447    -12.58514    -12.55986 
    0.036689    -12.82455    -12.84557    -12.52588    -12.55986 
    0.037902    -12.84921    -12.87122    -12.54095    -12.55986 
    0.039135    -12.84467    -12.86946    -12.52852    -12.55986 
    0.040387    -12.79276    -12.81898    -12.46715    -12.55986 
    0.041659    -12.78810    -12.81203    -12.44912    -12.55986 
    0.042950    -12.78657    -12.80947    -12.43519    -12.55986 
    0.044262    -12.73132    -12.75487    -12.36914    -12.55986 
    0.045593    -12.71781    -12.74131    -12.34406    -12.55986 
    0.046944    -12.75528    -12.77801    -12.36898    -12.55986 
    0.048314    -12.74302    -12.76729    -12.34628    -12.55986 
    0.049705    -12.70828    -12.73365    -12.30063    -12.55986 
    0.051115    -12.75055    -12.77681    -12.33163    -12.55986 
    0.052544    -12.76609    -12.79664    -12.33891    -12.55986 
    0.053994    -12.78158    -12.81752    -12.34715    -12.55986 
    0.055463    -12.84216    -12.88415    -12.40097    -12.55986 
    0.056952    -12.84013    -12.88335    -12.38720    -12.55986 
    0.058460    -12.84162    -12.88806    -12.37875    -12.55986 
    0.059989    -12.85225    -12.90653    -12.38389    -12.55986 
    0.061537    -12.85518    -12.91530    -12.37929    -12.55986 
    0.063104    -12.86591    -12.93154    -12.38187    -12.55986 
    0.064692    -12.86348    -12.93793    -12.37435    -12.55986 
    0.066299    -12.86950    -12.95557    -12.37800    -12.55986 
    0.067926    -12.88016    -12.97309    -12.38129    -12.55986 
    0.069573    -12.87223    -12.97175    -12.36568    -12.55986 
    0.071239    -12.86395    -12.96668    -12.34608    -12.55986 
    0.072925    -12.88118    -12.99621    -12.36084    -12.55986 
    0.074631    -12.85355    -12.98475    -12.33455    -12.55986 
    0.076356    -12.86262    -13.00741    -12.34226    -12.55986 
    0.078101    -12.86705    -13.02345    -12.34306    -12.55986 
    0.079866    -12.84985    -13.01495    -12.31918    -12.55986 
    0.081651    -12.83895    -13.02130    -12.30988    -12.55986 
    0.083456    -12.83547    -13.04109    -12.31400    -12.55986 
    0.085280    -12.83569    -13.05450    -12.31151    -12.55986 
    0.087123    -12.82323    -13.05882    -12.29986    -12.55986 
    0.088987    -12.82270    -13.08029    -12.30518    -12.55986 
    0.090870    -12.81863    -13.09913    -12.30765    -12.55986 
    0.092773    -12.80414    -13.09416    -12.28611    -12.55986 
    0.094696    -12.79678    -13.11552    -12.29054    -12.55986 
    0.096638    -12.78782    -13.12622    -12.28426    -12.55986 
    0.098601    -12.78224    -13.13502    -12.27605    -12.55986 
    0.100582    -12.77100    -13.17222    -12.29603    -12.55986 
    0.102584    -12.75367    -13.23606    -12.34236    -12.55986 
    0.104605    -12.75680    -13.30491    -12.39356    -12.55986 
    0.106646    -12.72822    -13.28986    -12.36087    -12.55986 
    0.108707    -12.72321    -13.28917    -12.34226    -12.55986 
    0.110788    -12.71180    -13.33470    -12.36954    -12.55986 
    0.112888    -12.70192    -13.35997    -12.37658    -12.55986 
    0.115008    -12.68142    -13.38889    -12.38708    -12.55986 
    0.117147    -12.67680    -13.40156    -12.38109    -12.55986 
    0.119307    -12.64845    -13.47659    -12.43719    -12.55986 
    0.121486    -12.65212    -13.53679    -12.47855    -12.55986 
    0.123685    -12.62497    -13.48966    -12.41226    -12.55986 
    0.125903    -12.62016    -13.50467    -12.40801    -12.55986 
    0.128141    -12.60358    -13.52880    -12.41252    -12.55986 
    0.130399    -12.58937    -13.67074    -12.53486    -12.55986 
    0.132677    -12.57334    -14.07501    -12.91925    -12.55986 
    0.134974    -12.56903    -14.01467    -12.83883    -12.55986 
    0.137291    -12.55455    -13.79520    -12.59916    -12.55986 
    0.139628    -12.52896    -13.69360    -12.47742    -12.55986 
    0.141985    -12.51517    -13.86323    -12.62650    -12.55986 
    0.144361    -12.50336    -13.95725    -12.69977    -12.55986 
    0.146757    -12.48697    -13.86839    -12.58996    -12.55986 
    0.149173    -12.48031    -13.86238    -12.56291    -12.55986 
    0.151608    -12.45992    -14.05081    -12.73014    -12.55986 
    0.154063    -12.44700    -14.61902    -13.27690    -12.55986 
    0.156538    -12.41285    -15.65230    -14.28853    -12.55986 
    0.159033    -12.32121    -14.78417    -13.39827    -12.55986 
    0.161547    -12.13220    -14.28627    -13.48396    -12.55986 
 
