# RELION postprocess; version 3.1-devel-commit-6bcdde
# --mask MaskCreate/job020/mask.mrc --i Refine3D/job029/run_half1_class001_unfil.mrc --o PostProcess/job030/postprocess --angpix 1.244 --auto_bfac --autob_lowres 10 --pipeline_control PostProcess/job030/ 

# version 30001

data_general

_rlnFinalResolution                           2.818265
_rlnBfactorUsedForSharpening                  -1.55530
_rlnUnfilteredMapHalf1                    Refine3D/job029/run_half1_class001_unfil.mrc
_rlnUnfilteredMapHalf2                    Refine3D/job029/run_half2_class001_unfil.mrc
_rlnMaskName                              MaskCreate/job020/mask.mrc
_rlnRandomiseFrom                             9.650424
_rlnFittedSlopeGuinierPlot                    -0.38882
_rlnFittedInterceptGuinierPlot               -12.68114
_rlnCorrelationFitGuinierPlot                 0.006685
 

# version 30001

data_fsc

loop_ 
_rlnSpectralIndex #1 
_rlnResolution #2 
_rlnAngstromResolution #3 
_rlnFourierShellCorrelationCorrected #4 
_rlnFourierShellCorrelationUnmaskedMaps #5 
_rlnFourierShellCorrelationMaskedMaps #6 
_rlnCorrectedFourierShellCorrelationPhaseRandomizedMaskedMaps #7 
           0     0.001001   999.000000     1.000000     1.000000     1.000000     1.000000 
           1     0.003140   318.463989     1.000000     0.999042     1.000000     1.000000 
           2     0.006280   159.231995     1.000000     0.999200     1.000000     1.000000 
           3     0.009420   106.154663     0.999997     0.997874     0.999997     0.999998 
           4     0.012560    79.615997     0.999962     0.997209     0.999962     0.999965 
           5     0.015700    63.692798     0.999893     0.997424     0.999893     0.999897 
           6     0.018840    53.077332     0.999633     0.990541     0.999633     0.999647 
           7     0.021981    45.494856     0.999651     0.991821     0.999651     0.999650 
           8     0.025121    39.807999     0.999724     0.994680     0.999724     0.999709 
           9     0.028261    35.384888     0.999619     0.991951     0.999619     0.999587 
          10     0.031401    31.846399     0.999532     0.989719     0.999532     0.999521 
          11     0.034541    28.951272     0.999381     0.986549     0.999381     0.999363 
          12     0.037681    26.538666     0.999228     0.982747     0.999228     0.999188 
          13     0.040821    24.497230     0.998856     0.979673     0.998856     0.998804 
          14     0.043961    22.747428     0.998627     0.975801     0.998627     0.998565 
          15     0.047101    21.230933     0.997870     0.967079     0.997870     0.997803 
          16     0.050241    19.903999     0.996417     0.948610     0.996417     0.996191 
          17     0.053381    18.733176     0.994267     0.910687     0.994267     0.994105 
          18     0.056521    17.692444     0.993579     0.880151     0.993579     0.993755 
          19     0.059661    16.761263     0.992488     0.854064     0.992488     0.992743 
          20     0.062801    15.923199     0.992725     0.860391     0.992725     0.992868 
          21     0.065942    15.164952     0.991146     0.869322     0.991146     0.991299 
          22     0.069082    14.475636     0.991637     0.898745     0.991637     0.991645 
          23     0.072222    13.846260     0.993280     0.906389     0.993280     0.993116 
          24     0.075362    13.269333     0.993742     0.907277     0.993742     0.993600 
          25     0.078502    12.738560     0.992631     0.884395     0.992631     0.992882 
          26     0.081642    12.248615     0.989432     0.850581     0.989432     0.989973 
          27     0.084782    11.794963     0.987671     0.827139     0.987671     0.988170 
          28     0.087922    11.373714     0.988046     0.819388     0.988046     0.988090 
          29     0.091062    10.981517     0.988496     0.834283     0.988496     0.987594 
          30     0.094202    10.615466     0.990072     0.853885     0.990072     0.988218 
          31     0.097342    10.273032     0.989884     0.844860     0.989884     0.986098 
          32     0.100482     9.952000     0.987814     0.822023     0.987814     0.974902 
          33     0.103622     9.650424     0.984305     0.784856     0.984305     0.926096 
          34     0.106762     9.366588     0.981908     0.726769     0.981908     0.714598 
          35     0.109903     9.098971     0.963800     0.696600     0.977851     0.388133 
          36     0.113043     8.846222     0.964321     0.680063     0.974081     0.273552 
          37     0.116183     8.607135     0.963240     0.672505     0.971035     0.212060 
          38     0.119323     8.380631     0.962444     0.645132     0.969005     0.174709 
          39     0.122463     8.165743     0.963447     0.632865     0.967918     0.122314 
          40     0.125603     7.961600     0.958549     0.612935     0.962522     0.095841 
          41     0.128743     7.767414     0.951225     0.593682     0.955913     0.096105 
          42     0.131883     7.582476     0.946516     0.557529     0.951139     0.086451 
          43     0.135023     7.406139     0.946876     0.511668     0.950267     0.063837 
          44     0.138163     7.237818     0.948663     0.520835     0.950277     0.031437 
          45     0.141303     7.076978     0.946360     0.533597     0.948215     0.034571 
          46     0.144443     6.923130     0.942469     0.502562     0.944160     0.029386 
          47     0.147583     6.775830     0.938860     0.478455     0.939905     0.017089 
          48     0.150723     6.634666     0.936262     0.513018     0.938098     0.028810 
          49     0.153864     6.499265     0.928697     0.460532     0.930396     0.023835 
          50     0.157004     6.369280     0.926193     0.430960     0.927895     0.023059 
          51     0.160144     6.244392     0.924434     0.442946     0.925358     0.012220 
          52     0.163284     6.124307     0.922197     0.438508     0.922677     0.006166 
          53     0.166424     6.008755     0.923842     0.457702     0.924815     0.012771 
          54     0.169564     5.897481     0.924862     0.440148     0.926462     0.021301 
          55     0.172704     5.790254     0.926506     0.467107     0.927189     0.009293 
          56     0.175844     5.686857     0.928024     0.463852     0.928638     0.008530 
          57     0.178984     5.587088     0.929962     0.470443     0.930324     0.005167 
          58     0.182124     5.490758     0.930106     0.437365     0.930520     0.005921 
          59     0.185264     5.397695     0.931364     0.480503     0.931178     -0.00271 
          60     0.188404     5.307733     0.931733     0.472013     0.930830     -0.01322 
          61     0.191544     5.220721     0.931143     0.459888     0.930637     -0.00734 
          62     0.194684     5.136516     0.929352     0.488145     0.929272     -0.00113 
          63     0.197825     5.054984     0.922500     0.475751     0.921820     -0.00877 
          64     0.200965     4.976000     0.919690     0.415437     0.919271     -0.00522 
          65     0.204105     4.899446     0.924972     0.480909     0.922950     -0.02695 
          66     0.207245     4.825212     0.928535     0.489386     0.927001     -0.02146 
          67     0.210385     4.753194     0.926848     0.462095     0.927118     0.003701 
          68     0.213525     4.683294     0.927504     0.482188     0.927986     0.006651 
          69     0.216665     4.615420     0.930997     0.501608     0.930882     -0.00167 
          70     0.219805     4.549486     0.928471     0.472422     0.928079     -0.00548 
          71     0.222945     4.485408     0.924606     0.448143     0.924873     0.003546 
          72     0.226085     4.423111     0.919696     0.452723     0.919881     0.002305 
          73     0.229225     4.362520     0.911241     0.425780     0.911122     -0.00133 
          74     0.232365     4.303567     0.898814     0.394787     0.896122     -0.02660 
          75     0.235505     4.246187     0.884841     0.359494     0.882209     -0.02285 
          76     0.238646     4.190316     0.881290     0.332384     0.879395     -0.01597 
          77     0.241786     4.135896     0.870944     0.325088     0.870042     -0.00699 
          78     0.244926     4.082872     0.851243     0.290670     0.851586     0.002312 
          79     0.248066     4.031190     0.836355     0.275595     0.837495     0.006963 
          80     0.251206     3.980800     0.825809     0.267461     0.825607     -0.00116 
          81     0.254346     3.931654     0.804924     0.245625     0.804545     -0.00194 
          82     0.257486     3.883707     0.784388     0.218374     0.783694     -0.00322 
          83     0.260626     3.836916     0.769603     0.201228     0.769125     -0.00208 
          84     0.263766     3.791238     0.754003     0.183719     0.753593     -0.00167 
          85     0.266906     3.746635     0.743080     0.162958     0.740403     -0.01042 
          86     0.270046     3.703070     0.717091     0.143028     0.715794     -0.00459 
          87     0.273186     3.660506     0.689400     0.134854     0.690273     0.002811 
          88     0.276326     3.618909     0.668997     0.140707     0.671075     0.006277 
          89     0.279466     3.578247     0.649231     0.112121     0.651254     0.005769 
          90     0.282607     3.538489     0.626533     0.104292     0.627942     0.003773 
          91     0.285747     3.499604     0.605939     0.108367     0.603701     -0.00568 
          92     0.288887     3.461565     0.576999     0.097285     0.568983     -0.01895 
          93     0.292027     3.424344     0.561741     0.080254     0.555584     -0.01405 
          94     0.295167     3.387915     0.542149     0.086065     0.542057 -2.00035e-04 
          95     0.298307     3.352253     0.510650     0.073872     0.515859     0.010646 
          96     0.301447     3.317333     0.479261     0.065185     0.481231     0.003783 
          97     0.304587     3.283134     0.456269     0.059680     0.452970     -0.00607 
          98     0.307727     3.249633     0.430881     0.040654     0.427550     -0.00585 
          99     0.310867     3.216808     0.411137     0.040812     0.409607     -0.00260 
         100     0.314007     3.184640     0.401091     0.045832     0.403193     0.003509 
         101     0.317147     3.153109     0.371903     0.034908     0.365624     -0.01000 
         102     0.320287     3.122196     0.337425     0.037940     0.331376     -0.00913 
         103     0.323427     3.091883     0.311004     0.026730     0.310115     -0.00129 
         104     0.326568     3.062154     0.292380     0.029046     0.288098     -0.00605 
         105     0.329708     3.032990     0.287653     0.025516     0.285158     -0.00350 
         106     0.332848     3.004377     0.261048     0.024214     0.254600     -0.00873 
         107     0.335988     2.976299     0.233254     0.017996     0.222221     -0.01439 
         108     0.339128     2.948741     0.218507     0.022479     0.212363     -0.00786 
         109     0.342268     2.921688     0.214017     0.028621     0.210396     -0.00461 
         110     0.345408     2.895127     0.195471     0.015858     0.190864     -0.00573 
         111     0.348548     2.869045     0.175617     0.015126     0.169203     -0.00778 
         112     0.351688     2.843428     0.166254     0.016695     0.157512     -0.01048 
         113     0.354828     2.818265     0.148501     0.012798     0.139193     -0.01093 
         114     0.357968     2.793544     0.114632     0.011904     0.110919     -0.00419 
         115     0.361108     2.769252     0.099700     0.002681     0.097597     -0.00234 
         116     0.364248     2.745379     0.085888     0.003750     0.085588 -3.28272e-04 
         117     0.367388     2.721914     0.095012     0.005644     0.089556     -0.00603 
         118     0.370529     2.698847     0.086654     0.005309     0.084571     -0.00228 
         119     0.373669     2.676168     0.076089     0.009099     0.073821     -0.00245 
         120     0.376809     2.653867     0.074851     -0.00356     0.075876     0.001109 
         121     0.379949     2.631934     0.062429 4.743735e-06     0.071658     0.009844 
         122     0.383089     2.610361     0.055420     0.008135     0.070462     0.015924 
         123     0.386229     2.589138     0.035187     -0.00394     0.047096     0.012343 
         124     0.389369     2.568258     0.025044     0.007759     0.033561     0.008736 
         125     0.392509     2.547712     0.025218     -0.00403     0.028901     0.003779 
         126     0.395649     2.527492     0.016864     0.002860     0.022808     0.006046 
         127     0.398789     2.507590 -9.68916e-04     -0.00121     0.008458     0.009418 
         128     0.401929     2.488000     -0.02777     -0.01031     -0.01424     0.013171 
 

# version 30001

data_guinier

loop_ 
_rlnResolutionSquared #1 
_rlnLogAmplitudesOriginal #2 
_rlnLogAmplitudesWeighted #3 
_rlnLogAmplitudesSharpened #4 
_rlnLogAmplitudesIntercept #5 
    0.000000    -11.27286    -11.27286    -11.27286    -12.68114 
9.860055e-06     -8.56773     -8.56773     -8.56772    -12.68114 
3.944022e-05     -8.21562     -8.21562     -8.21561    -12.68114 
8.874050e-05     -9.30512     -9.30512     -9.30508    -12.68114 
1.577609e-04     -9.75541     -9.75542     -9.75536    -12.68114 
2.465014e-04    -10.04307    -10.04310    -10.04300    -12.68114 
3.549620e-04    -10.74754    -10.74763    -10.74749    -12.68114 
4.831427e-04    -10.87457    -10.87466    -10.87446    -12.68114 
6.310435e-04    -10.89553    -10.89560    -10.89535    -12.68114 
7.986645e-04    -11.10569    -11.10579    -11.10547    -12.68114 
9.860055e-04    -11.41401    -11.41413    -11.41373    -12.68114 
    0.001193    -11.64869    -11.64885    -11.64838    -12.68114 
    0.001420    -11.73187    -11.73206    -11.73151    -12.68114 
    0.001666    -11.91265    -11.91294    -11.91229    -12.68114 
    0.001933    -12.00590    -12.00624    -12.00548    -12.68114 
    0.002219    -12.13309    -12.13362    -12.13276    -12.68114 
    0.002524    -12.31878    -12.31968    -12.31870    -12.68114 
    0.002850    -12.39565    -12.39709    -12.39598    -12.68114 
    0.003195    -12.32617    -12.32778    -12.32653    -12.68114 
    0.003559    -12.25686    -12.25875    -12.25736    -12.68114 
    0.003944    -12.24826    -12.25008    -12.24855    -12.68114 
    0.004348    -12.40428    -12.40650    -12.40481    -12.68114 
    0.004772    -12.51224    -12.51435    -12.51249    -12.68114 
    0.005216    -12.49650    -12.49818    -12.49615    -12.68114 
    0.005679    -12.50982    -12.51139    -12.50918    -12.68114 
    0.006163    -12.55479    -12.55665    -12.55425    -12.68114 
    0.006665    -12.58786    -12.59053    -12.58793    -12.68114 
    0.007188    -12.58257    -12.58568    -12.58288    -12.68114 
    0.007730    -12.53512    -12.53813    -12.53512    -12.68114 
    0.008292    -12.52867    -12.53157    -12.52834    -12.68114 
    0.008874    -12.53634    -12.53884    -12.53539    -12.68114 
    0.009476    -12.55283    -12.55538    -12.55169    -12.68114 
    0.010097    -12.62295    -12.62603    -12.62210    -12.68114 
    0.010738    -12.70519    -12.70916    -12.70499    -12.68114 
    0.011398    -12.75903    -12.76361    -12.75918    -12.68114 
    0.012079    -12.79513    -12.80443    -12.79973    -12.68114 
    0.012779    -12.83706    -12.84623    -12.84126    -12.68114 
    0.013498    -12.86500    -12.87445    -12.86919    -12.68114 
    0.014238    -12.85438    -12.86404    -12.85850    -12.68114 
    0.014997    -12.86131    -12.87071    -12.86487    -12.68114 
    0.015776    -12.88788    -12.89857    -12.89244    -12.68114 
    0.016575    -12.91476    -12.92742    -12.92097    -12.68114 
    0.017393    -12.95502    -12.96895    -12.96218    -12.68114 
    0.018231    -12.98548    -12.99931    -12.99222    -12.68114 
    0.019089    -12.94525    -12.95860    -12.95117    -12.68114 
    0.019967    -12.92071    -12.93469    -12.92692    -12.68114 
    0.020864    -12.93320    -12.94823    -12.94011    -12.68114 
    0.021781    -12.95924    -12.97526    -12.96679    -12.68114 
    0.022718    -12.91472    -12.93145    -12.92262    -12.68114 
    0.023674    -12.92397    -12.94281    -12.93360    -12.68114 
    0.024650    -12.91511    -12.93464    -12.92505    -12.68114 
    0.025646    -12.91756    -12.93759    -12.92761    -12.68114 
    0.026662    -12.91105    -12.93171    -12.92134    -12.68114 
    0.027697    -12.85034    -12.87054    -12.85976    -12.68114 
    0.028752    -12.83506    -12.85497    -12.84378    -12.68114 
    0.029827    -12.81422    -12.83366    -12.82206    -12.68114 
    0.030921    -12.76049    -12.77951    -12.76748    -12.68114 
    0.032035    -12.73303    -12.75151    -12.73905    -12.68114 
    0.033169    -12.73628    -12.75472    -12.74182    -12.68114 
    0.034323    -12.71403    -12.73212    -12.71877    -12.68114 
    0.035496    -12.67424    -12.69223    -12.67842    -12.68114 
    0.036689    -12.61490    -12.63305    -12.61878    -12.68114 
    0.037902    -12.63362    -12.65227    -12.63753    -12.68114 
    0.039135    -12.62190    -12.64248    -12.62726    -12.68114 
    0.040387    -12.56339    -12.58476    -12.56905    -12.68114 
    0.041659    -12.53718    -12.55706    -12.54085    -12.68114 
    0.042950    -12.53800    -12.55688    -12.54017    -12.68114 
    0.044262    -12.46878    -12.48813    -12.47091    -12.68114 
    0.045593    -12.44644    -12.46561    -12.44787    -12.68114 
    0.046944    -12.48068    -12.49887    -12.48061    -12.68114 
    0.048314    -12.44508    -12.46398    -12.44518    -12.68114 
    0.049705    -12.40729    -12.42727    -12.40794    -12.68114 
    0.051115    -12.44460    -12.46597    -12.44610    -12.68114 
    0.052544    -12.44900    -12.47277    -12.45234    -12.68114 
    0.053994    -12.43830    -12.46568    -12.44468    -12.68114 
    0.055463    -12.48493    -12.51645    -12.49488    -12.68114 
    0.056952    -12.48587    -12.51846    -12.49631    -12.68114 
    0.058460    -12.46707    -12.50280    -12.48007    -12.68114 
    0.059989    -12.47250    -12.51439    -12.49106    -12.68114 
    0.061537    -12.46632    -12.51299    -12.48906    -12.68114 
    0.063104    -12.47462    -12.52475    -12.50022    -12.68114 
    0.064692    -12.47235    -12.52954    -12.50438    -12.68114 
    0.066299    -12.46584    -12.53023    -12.50444    -12.68114 
    0.067926    -12.47189    -12.54164    -12.51522    -12.68114 
    0.069573    -12.45854    -12.53409    -12.50704    -12.68114 
    0.071239    -12.45006    -12.52978    -12.50208    -12.68114 
    0.072925    -12.45568    -12.54570    -12.51733    -12.68114 
    0.074631    -12.43174    -12.53331    -12.50429    -12.68114 
    0.076356    -12.42596    -12.53648    -12.50679    -12.68114 
    0.078101    -12.41346    -12.53302    -12.50265    -12.68114 
    0.079866    -12.40777    -12.53820    -12.50714    -12.68114 
    0.081651    -12.38115    -12.52192    -12.49016    -12.68114 
    0.083456    -12.37480    -12.53095    -12.49849    -12.68114 
    0.085280    -12.37893    -12.54362    -12.51045    -12.68114 
    0.087123    -12.35702    -12.53314    -12.49926    -12.68114 
    0.088987    -12.35193    -12.54766    -12.51305    -12.68114 
    0.090870    -12.33272    -12.54967    -12.51434    -12.68114 
    0.092773    -12.32453    -12.55823    -12.52216    -12.68114 
    0.094696    -12.30187    -12.55540    -12.51857    -12.68114 
    0.096638    -12.29619    -12.56623    -12.52864    -12.68114 
    0.098601    -12.27417    -12.55300    -12.51466    -12.68114 
    0.100582    -12.26312    -12.56920    -12.53009    -12.68114 
    0.102584    -12.24470    -12.58671    -12.54681    -12.68114 
    0.104605    -12.22636    -12.59916    -12.55848    -12.68114 
    0.106646    -12.19963    -12.59615    -12.55468    -12.68114 
    0.108707    -12.18421    -12.58705    -12.54478    -12.68114 
    0.110788    -12.16710    -12.60802    -12.56494    -12.68114 
    0.112888    -12.15456    -12.64063    -12.59673    -12.68114 
    0.115008    -12.12169    -12.63440    -12.58967    -12.68114 
    0.117147    -12.10518    -12.62642    -12.58087    -12.68114 
    0.119307    -12.07828    -12.63715    -12.59075    -12.68114 
    0.121486    -12.06240    -12.66645    -12.61921    -12.68114 
    0.123685    -12.03188    -12.65932    -12.61123    -12.68114 
    0.125903    -12.02107    -12.69731    -12.64835    -12.68114 
    0.128141    -11.99643    -12.78713    -12.73730    -12.68114 
    0.130399    -11.98087    -12.83461    -12.78390    -12.68114 
    0.132677    -11.96198    -12.88396    -12.83237    -12.68114 
    0.134974    -11.93863    -12.81432    -12.76183    -12.68114 
    0.137291    -11.92175    -12.83964    -12.78625    -12.68114 
    0.139628    -11.89204    -12.87006    -12.81577    -12.68114 
    0.141985    -11.87654    -12.86219    -12.80698    -12.68114 
    0.144361    -11.85458    -12.92515    -12.86901    -12.68114 
    0.146757    -11.83448    -12.96129    -12.90422    -12.68114 
    0.149173    -11.81984    -13.16409    -13.10608    -12.68114 
    0.151608    -11.78814    -13.29750    -13.23854    -12.68114 
    0.154063    -11.77285    -13.27883    -13.21892    -12.68114 
    0.156538    -11.73230    -13.43537    -13.37450    -12.68114 
    0.159033    -11.63894    -99.00000    -99.00000    -12.68114 
    0.161547    -11.47576    -99.00000    -99.00000    -12.68114 
 
