
# version 30001

data_fsc_-0108_-0028_-0028

loop_ 
_rlnSpectralIndex #1 
_rlnResolution #2 
_rlnAngstromResolution #3 
_rlnFourierShellCorrelationCorrected #4 
_rlnFourierShellCorrelationUnmaskedMaps #5 
_rlnFourierShellCorrelationMaskedMaps #6 
_rlnCorrectedFourierShellCorrelationPhaseRandomizedMaskedMaps #7 
           0     0.001001   999.000000     1.000000     1.000000     1.000000     1.000000 
           1     0.003140   318.463989     0.998355     0.999042     0.998355     0.998131 
           2     0.006280   159.231995     0.995074     0.999200     0.995074     0.994506 
           3     0.009420   106.154663     0.990019     0.997874     0.990019     0.988991 
           4     0.012560    79.615997     0.982390     0.997209     0.982390     0.980740 
           5     0.015700    63.692798     0.970504     0.997424     0.970504     0.967811 
           6     0.018840    53.077332     0.951645     0.990541     0.951645     0.946111 
           7     0.021981    45.494856     0.923209     0.991821     0.923209     0.906255 
           8     0.025121    39.807999     0.871180     0.994680     0.871180     0.807126 
           9     0.028261    35.384888     0.764264     0.991951     0.764264     0.585378 
          10     0.031401    31.846399     0.594245     0.989719     0.594245     0.336442 
          11     0.034541    28.951272     0.502801     0.986549     0.502801     0.190161 
          12     0.037681    26.538666     0.446762     0.982747     0.446762     0.091002 
          13     0.040821    24.497230     0.363651     0.979673     0.363651     -0.00378 
          14     0.043961    22.747428     0.274941     0.975801     0.232036     -0.05917 
          15     0.047101    21.230933     0.215636     0.967079     0.159410     -0.07168 
          16     0.050241    19.903999     0.227023     0.948610     0.180716     -0.05991 
          17     0.053381    18.733176     0.235165     0.910687     0.209236     -0.03390 
          18     0.056521    17.692444     0.216272     0.880151     0.206865     -0.01200 
          19     0.059661    16.761263     0.195839     0.854064     0.186512     -0.01160 
          20     0.062801    15.923199     0.180591     0.860391     0.156160     -0.02982 
          21     0.065942    15.164952     0.179471     0.869322     0.131287     -0.05872 
          22     0.069082    14.475636     0.169027     0.898745     0.097246     -0.08638 
          23     0.072222    13.846260     0.169872     0.906389     0.083702     -0.10380 
          24     0.075362    13.269333     0.154805     0.907277     0.071506     -0.09856 
          25     0.078502    12.738560     0.134057     0.884395     0.061556     -0.08373 
          26     0.081642    12.248615     0.078750     0.850581     0.068301     -0.01134 
          27     0.084782    11.794963     0.045457     0.827139     0.083802     0.040171 
          28     0.087922    11.373714     -0.04053     0.819388     0.073521     0.109605 
          29     0.091062    10.981517     -0.09511     0.834283     0.053578     0.135775 
          30     0.094202    10.615466     -0.12922     0.853885     0.015462     0.128123 
          31     0.097342    10.273032     -0.14562     0.844860     -0.03009     0.100847 
          32     0.100482     9.952000     -0.12458     0.822023     -0.05112     0.065319 
          33     0.103622     9.650424     -0.09312     0.784856     -0.05711     0.032940 
          34     0.106762     9.366588     -0.04591     0.726769     -0.03599     0.009487 
          35     0.109903     9.098971     -0.00690     0.696600     -0.00914     -0.00222 
          36     0.113043     8.846222     0.016872     0.680063     0.001537     -0.01560 
          37     0.116183     8.607135     0.022095     0.672505     0.001182     -0.02139 
          38     0.119323     8.380631     0.012573     0.645132     -0.02028     -0.03327 
          39     0.122463     8.165743     -0.00815     0.632865     -0.04822     -0.03974 
          40     0.125603     7.961600     -0.02620     0.612935     -0.06857     -0.04129 
          41     0.128743     7.767414     -0.02675     0.593682     -0.06837     -0.04053 
          42     0.131883     7.582476     -0.00357     0.557529     -0.04736     -0.04364 
          43     0.135023     7.406139     0.024651     0.511668     -0.01706     -0.04277 
          44     0.138163     7.237818     0.060415     0.520835     0.018458     -0.04465 
          45     0.141303     7.076978     0.063883     0.533597     0.032346     -0.03369 
          46     0.144443     6.923130     0.047137     0.502562     0.034969     -0.01277 
          47     0.147583     6.775830     0.006236     0.478455     0.010911     0.004704 
          48     0.150723     6.634666     -0.03971     0.513018     -0.01749     0.021371 
          49     0.153864     6.499265     -0.05796     0.460532     -0.02494     0.031207 
          50     0.157004     6.369280     -0.07342     0.430960     -0.04139     0.029846 
          51     0.160144     6.244392     -0.03948     0.442946     -0.02047     0.018285 
          52     0.163284     6.124307     -0.00710     0.438508     -0.00417     0.002909 
          53     0.166424     6.008755     0.027425     0.457702     0.025115     -0.00238 
          54     0.169564     5.897481     0.047899     0.440148     0.045410     -0.00261 
          55     0.172704     5.790254     0.058924     0.467107     0.054814     -0.00437 
          56     0.175844     5.686857     0.046945     0.463852     0.049842     0.003039 
          57     0.178984     5.587088     0.045730     0.470443     0.046575 8.855020e-04 
          58     0.182124     5.490758     0.031884     0.437365     0.029766     -0.00219 
          59     0.185264     5.397695     0.026741     0.480503     0.019892     -0.00704 
          60     0.188404     5.307733     0.028255     0.472013     0.013780     -0.01490 
          61     0.191544     5.220721     0.029932     0.459888     0.013797     -0.01663 
          62     0.194684     5.136516     0.026381     0.488145     0.019768     -0.00679 
          63     0.197825     5.054984     0.002033     0.475751     0.011712     0.009700 
          64     0.200965     4.976000     -0.01216     0.415437     0.007894     0.019809 
          65     0.204105     4.899446     -0.03916     0.480909     -0.00913     0.028904 
          66     0.207245     4.825212     -0.06388     0.489386     -0.03246     0.029525 
          67     0.210385     4.753194     -0.07633     0.462095     -0.04981     0.024641 
          68     0.213525     4.683294     -0.08128     0.482188     -0.06467     0.015360 
          69     0.216665     4.615420     -0.06437     0.501608     -0.05794     0.006040 
          70     0.219805     4.549486     -0.03612     0.472422     -0.04085     -0.00456 
          71     0.222945     4.485408     -0.00553     0.448143     -0.01128     -0.00571 
          72     0.226085     4.423111     0.020310     0.452723     0.021541     0.001257 
          73     0.229225     4.362520     0.033696     0.425780     0.044530     0.011211 
          74     0.232365     4.303567     0.024928     0.394787     0.052436     0.028212 
          75     0.235505     4.246187     -0.00107     0.359494     0.046446     0.047461 
          76     0.238646     4.190316     -0.02583     0.332384     0.034289     0.058608 
          77     0.241786     4.135896     -0.05412     0.325088     0.014140     0.064759 
          78     0.244926     4.082872     -0.05470     0.290670     0.007509     0.058986 
          79     0.248066     4.031190     -0.03930     0.275595     0.003742     0.041411 
          80     0.251206     3.980800     -0.01564     0.267461     0.009795     0.025043 
          81     0.254346     3.931654     0.011156     0.245625     0.018002     0.006923 
          82     0.257486     3.883707     0.027668     0.218374     0.020365     -0.00751 
          83     0.260626     3.836916     0.038443     0.201228     0.022438     -0.01664 
          84     0.263766     3.791238     0.028432     0.183719     0.008291     -0.02073 
          85     0.266906     3.746635     0.013163     0.162958     -0.00428     -0.01767 
          86     0.270046     3.703070     -0.00894     0.143028     -0.01950     -0.01047 
          87     0.273186     3.660506     -0.03014     0.134854     -0.03522     -0.00493 
          88     0.276326     3.618909     -0.04800     0.140707     -0.04115     0.006538 
          89     0.279466     3.578247     -0.05819     0.112121     -0.04473     0.012721 
          90     0.282607     3.538489     -0.06432     0.104292     -0.04232     0.020674 
          91     0.285747     3.499604     -0.06759     0.108367     -0.03673     0.028906 
          92     0.288887     3.461565     -0.07301     0.097285     -0.03912     0.031579 
          93     0.292027     3.424344     -0.07486     0.080254     -0.04402     0.028698 
          94     0.295167     3.387915     -0.07858     0.086065     -0.05279     0.023910 
          95     0.298307     3.352253     -0.07339     0.073872     -0.05992     0.012550 
          96     0.301447     3.317333     -0.06281     0.065185     -0.06453     -0.00162 
          97     0.304587     3.283134     -0.04359     0.059680     -0.06028     -0.01599 
          98     0.307727     3.249633     -0.01733     0.040654     -0.04953     -0.03166 
          99     0.310867     3.216808 4.261792e-04     0.040812     -0.03898     -0.03943 
         100     0.314007     3.184640     0.011929     0.045832     -0.02973     -0.04217 
         101     0.317147     3.153109     0.009649     0.034908     -0.02559     -0.03558 
         102     0.320287     3.122196     -0.00593     0.037940     -0.03135     -0.02527 
         103     0.323427     3.091883     -0.01748     0.026730     -0.03068     -0.01298 
         104     0.326568     3.062154     -0.03342     0.029046     -0.03820     -0.00463 
         105     0.329708     3.032990     -0.03557     0.025516     -0.03610 -5.12009e-04 
         106     0.332848     3.004377     -0.03987     0.024214     -0.03640     0.003337 
         107     0.335988     2.976299     -0.03254     0.017996     -0.03093     0.001557 
         108     0.339128     2.948741     -0.02793     0.022479     -0.02341     0.004398 
         109     0.342268     2.921688     -0.02186     0.028621     -0.01877     0.003026 
         110     0.345408     2.895127     -0.01314     0.015858     -0.01157     0.001554 
         111     0.348548     2.869045     -0.00871     0.015126     -0.00899 -2.76645e-04 
         112     0.351688     2.843428     -0.00453     0.016695     -0.00769     -0.00315 
         113     0.354828     2.818265     0.001881     0.012798     -0.00480     -0.00669 
         114     0.357968     2.793544     0.006310     0.011904     -0.00332     -0.00969 
         115     0.361108     2.769252     0.018713     0.002681     0.003959     -0.01504 
         116     0.364248     2.745379     0.030010     0.003750     0.010220     -0.02040 
         117     0.367388     2.721914     0.037866     0.005644     0.012770     -0.02608 
         118     0.370529     2.698847     0.044952     0.005309     0.016001     -0.03031 
         119     0.373669     2.676168     0.042333     0.009099     0.011997     -0.03168 
         120     0.376809     2.653867     0.033884     -0.00356     0.001595     -0.03342 
         121     0.379949     2.631934     0.027428 4.743735e-06     -0.00414     -0.03245 
         122     0.383089     2.610361     0.015729     0.008135     -0.01575     -0.03198 
         123     0.386229     2.589138     0.016626     -0.00394     -0.01662     -0.03381 
         124     0.389369     2.568258     0.012066     0.007759     -0.02093     -0.03340 
         125     0.392509     2.547712     0.011705     -0.00403     -0.02150     -0.03360 
         126     0.395649     2.527492     0.011584     0.002860     -0.02000     -0.03196 
         127     0.398789     2.507590     0.005296     -0.00121     -0.02227     -0.02771 
         128     0.401929     2.488000     -0.00296     -0.01031     -0.02706     -0.02403 
 
 kk= -108 ii= -28 jj= -28 local resolution= 13.2693

# version 30001

data_fsc_-0108_00032_-0028

loop_ 
_rlnSpectralIndex #1 
_rlnResolution #2 
_rlnAngstromResolution #3 
_rlnFourierShellCorrelationCorrected #4 
_rlnFourierShellCorrelationUnmaskedMaps #5 
_rlnFourierShellCorrelationMaskedMaps #6 
_rlnCorrectedFourierShellCorrelationPhaseRandomizedMaskedMaps #7 
           0     0.001001   999.000000     1.000000     1.000000     1.000000     1.000000 
           1     0.003140   318.463989     0.998907     0.999042     0.998907     0.998763 
           2     0.006280   159.231995     0.995891     0.999200     0.995891     0.995407 
           3     0.009420   106.154663     0.990979     0.997874     0.990979     0.990052 
           4     0.012560    79.615997     0.982769     0.997209     0.982769     0.981415 
           5     0.015700    63.692798     0.966606     0.997424     0.966606     0.963837 
           6     0.018840    53.077332     0.940265     0.990541     0.940265     0.932601 
           7     0.021981    45.494856     0.896844     0.991821     0.896844     0.864069 
           8     0.025121    39.807999     0.821147     0.994680     0.821147     0.695107 
           9     0.028261    35.384888     0.686505     0.991951     0.686505     0.385914 
          10     0.031401    31.846399     0.579336     0.989719     0.579336     0.215077 
          11     0.034541    28.951272     0.583920     0.986549     0.583920     0.201410 
          12     0.037681    26.538666     0.549757     0.982747     0.549757     0.157193 
          13     0.040821    24.497230     0.400505     0.979673     0.400505     0.093909 
          14     0.043961    22.747428     0.149394     0.975801     0.167076     0.020787 
          15     0.047101    21.230933     0.051682     0.967079     0.005777     -0.04841 
          16     0.050241    19.903999     0.050179     0.948610     -0.03211     -0.08664 
          17     0.053381    18.733176     0.067089     0.910687     -0.00936     -0.08195 
          18     0.056521    17.692444     0.060624     0.880151     -0.00634     -0.07129 
          19     0.059661    16.761263     0.036768     0.854064     -0.01938     -0.05829 
          20     0.062801    15.923199     0.021311     0.860391     -0.02994     -0.05237 
          21     0.065942    15.164952     -0.01216     0.869322     -0.03752     -0.02505 
          22     0.069082    14.475636     -0.04802     0.898745     -0.03383     0.013540 
          23     0.072222    13.846260     -0.07700     0.906389     -0.02475     0.048517 
          24     0.075362    13.269333     -0.10301     0.907277     -0.01716     0.077837 
          25     0.078502    12.738560     -0.09179     0.884395     -0.01369     0.071542 
          26     0.081642    12.248615     -0.02967     0.850581 -9.51742e-04     0.027894 
          27     0.084782    11.794963     0.012783     0.827139     -0.00142     -0.01439 
          28     0.087922    11.373714     0.037631     0.819388     -0.00905     -0.04850 
          29     0.091062    10.981517     0.029274     0.834283     -0.02518     -0.05610 
          30     0.094202    10.615466     -0.01536     0.853885     -0.05470     -0.03875 
          31     0.097342    10.273032     -0.06363     0.844860     -0.08617     -0.02119 
          32     0.100482     9.952000     -0.09607     0.822023     -0.09960     -0.00322 
          33     0.103622     9.650424     -0.12597     0.784856     -0.10468     0.018911 
          34     0.106762     9.366588     -0.11807     0.726769     -0.07723     0.036522 
          35     0.109903     9.098971     -0.11645     0.696600     -0.05588     0.054252 
          36     0.113043     8.846222     -0.09878     0.680063     -0.02925     0.063280 
          37     0.116183     8.607135     -0.07800     0.672505     -0.00367     0.068952 
          38     0.119323     8.380631     -0.07489     0.645132     -0.01040     0.059998 
          39     0.122463     8.165743     -0.03423     0.632865 -3.88384e-04     0.032720 
          40     0.125603     7.961600     -0.01739     0.612935     -0.00238     0.014752 
          41     0.128743     7.767414     0.005129     0.593682     0.002303     -0.00284 
          42     0.131883     7.582476     0.021885     0.557529     0.012591     -0.00950 
          43     0.135023     7.406139     0.013805     0.511668     0.017096     0.003337 
          44     0.138163     7.237818     0.003770     0.520835     0.018763     0.015050 
          45     0.141303     7.076978     -0.00403     0.533597     0.008550     0.012526 
          46     0.144443     6.923130     -0.03144     0.502562     -0.00302     0.027553 
          47     0.147583     6.775830     -0.03378     0.478455     -0.00457     0.028259 
          48     0.150723     6.634666     -0.04296     0.513018     -0.00468     0.036706 
          49     0.153864     6.499265     -0.03262     0.460532     0.004079     0.035540 
          50     0.157004     6.369280     -0.00300     0.430960     0.016712     0.019648 
          51     0.160144     6.244392     0.015409     0.442946     0.029464     0.014275 
          52     0.163284     6.124307     0.034602     0.438508     0.030501     -0.00425 
          53     0.166424     6.008755     0.031498     0.457702     0.026158     -0.00551 
          54     0.169564     5.897481     0.028154     0.440148     0.017523     -0.01094 
          55     0.172704     5.790254 -6.33157e-04     0.467107     0.001803     0.002434 
          56     0.175844     5.686857     -0.01334     0.463852     -0.00508     0.008154 
          57     0.178984     5.587088     -0.01758     0.470443     -0.00852     0.008900 
          58     0.182124     5.490758     -0.01909     0.437365     -0.00964     0.009274 
          59     0.185264     5.397695     -0.00256     0.480503     -0.01790     -0.01531 
          60     0.188404     5.307733 -7.79441e-04     0.472013     -0.02841     -0.02761 
          61     0.191544     5.220721     0.005214     0.459888     -0.03660     -0.04203 
          62     0.194684     5.136516     0.008824     0.488145     -0.04614     -0.05546 
          63     0.197825     5.054984     -0.00244     0.475751     -0.04889     -0.04634 
          64     0.200965     4.976000     -0.01279     0.415437     -0.04594     -0.03273 
          65     0.204105     4.899446     -0.01303     0.480909     -0.03164     -0.01837 
          66     0.207245     4.825212     -0.01103     0.489386     -0.01785     -0.00674 
          67     0.210385     4.753194     -0.01397     0.462095     -0.00860     0.005296 
          68     0.213525     4.683294     -0.00264     0.482188     0.001625     0.004251 
          69     0.216665     4.615420     -0.01021     0.501608 7.045150e-05     0.010174 
          70     0.219805     4.549486     -0.00304     0.472422     0.006114     0.009123 
          71     0.222945     4.485408     -0.00271     0.448143     0.009960     0.012632 
          72     0.226085     4.423111     -0.01000     0.452723     0.009489     0.019295 
          73     0.229225     4.362520     -0.01376     0.425780     0.012813     0.026209 
          74     0.232365     4.303567     -0.02745     0.394787     0.002948     0.029589 
          75     0.235505     4.246187     -0.05149     0.359494     -0.02090     0.029088 
          76     0.238646     4.190316     -0.05308     0.332384     -0.04006     0.012363 
          77     0.241786     4.135896     -0.05035     0.325088     -0.06111     -0.01024 
          78     0.244926     4.082872     -0.03179     0.290670     -0.06974     -0.03678 
          79     0.248066     4.031190     -0.00763     0.275595     -0.06515     -0.05708 
          80     0.251206     3.980800     0.018398     0.267461     -0.04803     -0.06767 
          81     0.254346     3.931654     0.032030     0.245625     -0.03115     -0.06527 
          82     0.257486     3.883707     0.033627     0.218374     -0.01708     -0.05247 
          83     0.260626     3.836916     0.025591     0.201228     -0.00662     -0.03306 
          84     0.263766     3.791238     0.014725     0.183719     -0.00292     -0.01791 
          85     0.266906     3.746635     -0.00603     0.162958     -0.00953     -0.00349 
          86     0.270046     3.703070     -0.02539     0.143028     -0.01845     0.006762 
          87     0.273186     3.660506     -0.03712     0.134854     -0.02773     0.009059 
          88     0.276326     3.618909     -0.05848     0.140707     -0.04054     0.016944 
          89     0.279466     3.578247     -0.07863     0.112121     -0.05023     0.026325 
          90     0.282607     3.538489     -0.09297     0.104292     -0.05653     0.033337 
          91     0.285747     3.499604     -0.09949     0.108367     -0.05126     0.043862 
          92     0.288887     3.461565     -0.08955     0.097285     -0.04345     0.042309 
          93     0.292027     3.424344     -0.06781     0.080254     -0.02648     0.038706 
          94     0.295167     3.387915     -0.04369     0.086065     -0.01182     0.030535 
          95     0.298307     3.352253     -0.02572     0.073872     -0.00259     0.022544 
          96     0.301447     3.317333     -0.03320     0.065185     -0.00517     0.027123 
          97     0.304587     3.283134     -0.04683     0.059680     -0.01789     0.027646 
          98     0.307727     3.249633     -0.06740     0.040654     -0.03129     0.033829 
          99     0.310867     3.216808     -0.08032     0.040812     -0.03994     0.037379 
         100     0.314007     3.184640     -0.08052     0.045832     -0.04084     0.036723 
         101     0.317147     3.153109     -0.06798     0.034908     -0.03416     0.031668 
         102     0.320287     3.122196     -0.05283     0.037940     -0.02326     0.028089 
         103     0.323427     3.091883     -0.03891     0.026730     -0.01007     0.027762 
         104     0.326568     3.062154     -0.02435     0.029046     0.001431     0.025168 
         105     0.329708     3.032990     -0.01261     0.025516     0.012876     0.025168 
         106     0.332848     3.004377     -0.00273     0.024214     0.019539     0.022208 
         107     0.335988     2.976299     0.003863     0.017996     0.021035     0.017239 
         108     0.339128     2.948741     0.006983     0.022479     0.018274     0.011370 
         109     0.342268     2.921688     0.005023     0.028621     0.009891     0.004893 
         110     0.345408     2.895127 -5.08712e-04     0.015858 -8.87291e-04 -3.78387e-04 
         111     0.348548     2.869045     -0.01035     0.015126     -0.01241     -0.00204 
         112     0.351688     2.843428     -0.01989     0.016695     -0.02462     -0.00464 
         113     0.354828     2.818265     -0.02187     0.012798     -0.03172     -0.00963 
         114     0.357968     2.793544     -0.01624     0.011904     -0.03358     -0.01706 
         115     0.361108     2.769252     -0.01863     0.002681     -0.03933     -0.02032 
         116     0.364248     2.745379     -0.01284     0.003750     -0.03715     -0.02400 
         117     0.367388     2.721914     -0.01604     0.005644     -0.03922     -0.02282 
         118     0.370529     2.698847     -0.01977     0.005309     -0.04091     -0.02073 
         119     0.373669     2.676168     -0.02771     0.009099     -0.04362     -0.01549 
         120     0.376809     2.653867     -0.03680     -0.00356     -0.04850     -0.01128 
         121     0.379949     2.631934     -0.04271 4.743735e-06     -0.05023     -0.00721 
         122     0.383089     2.610361     -0.04807     0.008135     -0.05251     -0.00424 
         123     0.386229     2.589138     -0.04303     -0.00394     -0.04742     -0.00421 
         124     0.389369     2.568258     -0.04321     0.007759     -0.04458     -0.00131 
         125     0.392509     2.547712     -0.03708     -0.00403     -0.03621 8.307037e-04 
         126     0.395649     2.527492     -0.03005     0.002860     -0.02870     0.001304 
         127     0.398789     2.507590     -0.02953     -0.00121     -0.02145     0.007854 
         128     0.401929     2.488000     -0.02952     -0.01031     -0.01767     0.011510 
 
 kk= -108 ii= 32 jj= -28 local resolution= 22.7474

# version 30001

data_fsc_-0088_-0048_00032

loop_ 
_rlnSpectralIndex #1 
_rlnResolution #2 
_rlnAngstromResolution #3 
_rlnFourierShellCorrelationCorrected #4 
_rlnFourierShellCorrelationUnmaskedMaps #5 
_rlnFourierShellCorrelationMaskedMaps #6 
_rlnCorrectedFourierShellCorrelationPhaseRandomizedMaskedMaps #7 
           0     0.001001   999.000000     1.000000     1.000000     1.000000     1.000000 
           1     0.003140   318.463989     0.999756     0.999042     0.999756     0.999755 
           2     0.006280   159.231995     0.999260     0.999200     0.999260     0.999292 
           3     0.009420   106.154663     0.998445     0.997874     0.998445     0.998605 
           4     0.012560    79.615997     0.997041     0.997209     0.997041     0.997452 
           5     0.015700    63.692798     0.994204     0.997424     0.994204     0.994839 
           6     0.018840    53.077332     0.987723     0.990541     0.987723     0.986513 
           7     0.021981    45.494856     0.971315     0.991821     0.971315     0.957632 
           8     0.025121    39.807999     0.916889     0.994680     0.916889     0.839645 
           9     0.028261    35.384888     0.697980     0.991951     0.697980     0.485695 
          10     0.031401    31.846399     0.444134     0.989719     0.444134     0.145889 
          11     0.034541    28.951272     0.482383     0.986549     0.482383     -0.01939 
          12     0.037681    26.538666     0.473082     0.982747     0.473082     -0.07921 
          13     0.040821    24.497230     0.391783     0.979673     0.391783     -0.12623 
          14     0.043961    22.747428     0.280388     0.975801     0.224294     -0.07795 
          15     0.047101    21.230933     0.113661     0.967079     0.134878     0.023938 
          16     0.050241    19.903999     -0.00460     0.948610     0.102070     0.106180 
          17     0.053381    18.733176     -0.07246     0.910687     0.071498     0.134231 
          18     0.056521    17.692444     -0.05960     0.880151     0.032230     0.086668 
          19     0.059661    16.761263     0.002005     0.854064     0.008483     0.006491 
          20     0.062801    15.923199     0.075431     0.860391     -0.00986     -0.09225 
          21     0.065942    15.164952     0.145158     0.869322     0.010472     -0.15756 
          22     0.069082    14.475636     0.185341     0.898745     0.026125     -0.19544 
          23     0.072222    13.846260     0.206014     0.906389     0.054133     -0.19129 
          24     0.075362    13.269333     0.187231     0.907277     0.059883     -0.15669 
          25     0.078502    12.738560     0.144716     0.884395     0.043926     -0.11784 
          26     0.081642    12.248615     0.097027     0.850581     0.045463     -0.05711 
          27     0.084782    11.794963     0.085879     0.827139     0.044906     -0.04482 
          28     0.087922    11.373714     0.081190     0.819388     0.071270     -0.01080 
          29     0.091062    10.981517     0.116193     0.834283     0.112241     -0.00447 
          30     0.094202    10.615466     0.155783     0.853885     0.155537 -2.90964e-04 
          31     0.097342    10.273032     0.174650     0.844860     0.178588     0.004771 
          32     0.100482     9.952000     0.173004     0.822023     0.173868     0.001045 
          33     0.103622     9.650424     0.142301     0.784856     0.141850 -5.26568e-04 
          34     0.106762     9.366588     0.096465     0.726769     0.086410     -0.01113 
          35     0.109903     9.098971     0.043527     0.696600     0.044120 6.201018e-04 
          36     0.113043     8.846222     0.016405     0.680063     0.023170     0.006878 
          37     0.116183     8.607135     0.001424     0.672505     0.017913     0.016512 
          38     0.119323     8.380631     -0.00418     0.645132     0.027302     0.031352 
          39     0.122463     8.165743     0.010639     0.632865     0.048185     0.037950 
          40     0.125603     7.961600     0.018343     0.612935     0.060406     0.042849 
          41     0.128743     7.767414     0.053851     0.593682     0.081522     0.029245 
          42     0.131883     7.582476     0.084354     0.557529     0.093356     0.009832 
          43     0.135023     7.406139     0.104371     0.511668     0.092123     -0.01367 
          44     0.138163     7.237818     0.110487     0.520835     0.077252     -0.03736 
          45     0.141303     7.076978     0.086399     0.533597     0.048000     -0.04203 
          46     0.144443     6.923130     0.052295     0.502562     0.015847     -0.03846 
          47     0.147583     6.775830     -0.00557     0.478455     -0.02274     -0.01707 
          48     0.150723     6.634666     -0.05521     0.513018     -0.04251     0.012030 
          49     0.153864     6.499265     -0.09187     0.460532     -0.05079     0.037631 
          50     0.157004     6.369280     -0.10532     0.430960     -0.04954     0.050467 
          51     0.160144     6.244392     -0.10332     0.442946     -0.04216     0.055430 
          52     0.163284     6.124307     -0.08911     0.438508     -0.03659     0.048225 
          53     0.166424     6.008755     -0.07593     0.457702     -0.02943     0.043218 
          54     0.169564     5.897481     -0.06308     0.440148     -0.02315     0.037563 
          55     0.172704     5.790254     -0.05462     0.467107     -0.01242     0.040010 
