# RELION postprocess; version 3.1-devel-commit-6bcdde
# --mask MaskCreate/job020/mask.mrc --i Refine3D/job019/run_half1_class001_unfil.mrc --o PostProcess/job021/postprocess --angpix 1.244 --auto_bfac --autob_lowres 10 --pipeline_control PostProcess/job021/ 

# version 30001

data_general

_rlnFinalResolution                           3.032990
_rlnBfactorUsedForSharpening                 -35.12359
_rlnUnfilteredMapHalf1                    Refine3D/job019/run_half1_class001_unfil.mrc
_rlnUnfilteredMapHalf2                    Refine3D/job019/run_half2_class001_unfil.mrc
_rlnMaskName                              MaskCreate/job020/mask.mrc
_rlnRandomiseFrom                             9.650424
_rlnFittedSlopeGuinierPlot                    -8.78090
_rlnFittedInterceptGuinierPlot               -12.59659
_rlnCorrelationFitGuinierPlot                 0.694455
 

# version 30001

data_fsc

loop_ 
_rlnSpectralIndex #1 
_rlnResolution #2 
_rlnAngstromResolution #3 
_rlnFourierShellCorrelationCorrected #4 
_rlnFourierShellCorrelationUnmaskedMaps #5 
_rlnFourierShellCorrelationMaskedMaps #6 
_rlnCorrectedFourierShellCorrelationPhaseRandomizedMaskedMaps #7 
           0     0.001001   999.000000     1.000000     1.000000     1.000000     1.000000 
           1     0.003140   318.463989     1.000000     0.999044     1.000000     1.000000 
           2     0.006280   159.231995     0.999998     0.999260     0.999998     0.999998 
           3     0.009420   106.154663     0.999981     0.998367     0.999981     0.999983 
           4     0.012560    79.615997     0.999910     0.996976     0.999910     0.999913 
           5     0.015700    63.692798     0.999809     0.997350     0.999809     0.999815 
           6     0.018840    53.077332     0.999434     0.991273     0.999434     0.999460 
           7     0.021981    45.494856     0.999597     0.992209     0.999597     0.999604 
           8     0.025121    39.807999     0.999671     0.994492     0.999671     0.999658 
           9     0.028261    35.384888     0.999550     0.991880     0.999550     0.999515 
          10     0.031401    31.846399     0.999478     0.989651     0.999478     0.999471 
          11     0.034541    28.951272     0.999365     0.986891     0.999365     0.999362 
          12     0.037681    26.538666     0.999168     0.983206     0.999168     0.999128 
          13     0.040821    24.497230     0.998701     0.979732     0.998701     0.998653 
          14     0.043961    22.747428     0.998407     0.975233     0.998407     0.998377 
          15     0.047101    21.230933     0.997535     0.967494     0.997535     0.997516 
          16     0.050241    19.903999     0.995824     0.946703     0.995824     0.995654 
          17     0.053381    18.733176     0.993133     0.912601     0.993133     0.992936 
          18     0.056521    17.692444     0.992465     0.877587     0.992465     0.992570 
          19     0.059661    16.761263     0.991676     0.843272     0.991676     0.991946 
          20     0.062801    15.923199     0.992200     0.846274     0.992200     0.992487 
          21     0.065942    15.164952     0.991129     0.861216     0.991129     0.991397 
          22     0.069082    14.475636     0.992011     0.895971     0.992011     0.991994 
          23     0.072222    13.846260     0.993512     0.906884     0.993512     0.993321 
          24     0.075362    13.269333     0.993962     0.902710     0.993962     0.993757 
          25     0.078502    12.738560     0.992936     0.879025     0.992936     0.993120 
          26     0.081642    12.248615     0.989790     0.844887     0.989790     0.990274 
          27     0.084782    11.794963     0.987474     0.818311     0.987474     0.987896 
          28     0.087922    11.373714     0.987682     0.806742     0.987682     0.987524 
          29     0.091062    10.981517     0.988355     0.824012     0.988355     0.987395 
          30     0.094202    10.615466     0.989772     0.842188     0.989772     0.988077 
          31     0.097342    10.273032     0.989031     0.835339     0.989031     0.985617 
          32     0.100482     9.952000     0.986449     0.816099     0.986449     0.973337 
          33     0.103622     9.650424     0.983284     0.768271     0.983284     0.925637 
          34     0.106762     9.366588     0.981107     0.712401     0.981107     0.722056 
          35     0.109903     9.098971     0.960641     0.688276     0.976492     0.402721 
          36     0.113043     8.846222     0.960449     0.664290     0.972260     0.298640 
          37     0.116183     8.607135     0.958823     0.652156     0.968714     0.240195 
          38     0.119323     8.380631     0.957769     0.618529     0.966062     0.196363 
          39     0.122463     8.165743     0.958431     0.606366     0.964514     0.146347 
          40     0.125603     7.961600     0.953362     0.579320     0.958956     0.119954 
          41     0.128743     7.767414     0.945681     0.568679     0.952067     0.117560 
          42     0.131883     7.582476     0.939295     0.529781     0.945792     0.107023 
          43     0.135023     7.406139     0.937823     0.479534     0.942157     0.069706 
          44     0.138163     7.237818     0.941155     0.489418     0.942917     0.029942 
          45     0.141303     7.076978     0.940956     0.484765     0.942703     0.029590 
          46     0.144443     6.923130     0.936269     0.467345     0.938172     0.029856 
          47     0.147583     6.775830     0.930650     0.450070     0.932450     0.025953 
          48     0.150723     6.634666     0.927251     0.480823     0.929975     0.037442 
          49     0.153864     6.499265     0.920082     0.412116     0.922461     0.029768 
          50     0.157004     6.369280     0.917123     0.374889     0.919150     0.024465 
          51     0.160144     6.244392     0.912572     0.397377     0.913565     0.011361 
          52     0.163284     6.124307     0.909149     0.396511     0.910913     0.019420 
          53     0.166424     6.008755     0.909606     0.402158     0.911794     0.024214 
          54     0.169564     5.897481     0.907054     0.388491     0.909440     0.025669 
          55     0.172704     5.790254     0.909739     0.408377     0.910966     0.013601 
          56     0.175844     5.686857     0.914175     0.415813     0.914846     0.007821 
          57     0.178984     5.587088     0.916809     0.415802     0.917228     0.005037 
          58     0.182124     5.490758     0.915968     0.379172     0.916340     0.004427 
          59     0.185264     5.397695     0.917108     0.417841     0.916186     -0.01113 
          60     0.188404     5.307733     0.918412     0.410760     0.916760     -0.02025 
          61     0.191544     5.220721     0.918303     0.394762     0.916888     -0.01732 
          62     0.194684     5.136516     0.914366     0.428297     0.913348     -0.01189 
          63     0.197825     5.054984     0.905432     0.413403     0.904368     -0.01126 
          64     0.200965     4.976000     0.899327     0.317820     0.898556     -0.00766 
          65     0.204105     4.899446     0.903613     0.411963     0.901155     -0.02550 
          66     0.207245     4.825212     0.907511     0.434951     0.905649     -0.02013 
          67     0.210385     4.753194     0.905746     0.367272     0.905536     -0.00223 
          68     0.213525     4.683294     0.905036     0.392185     0.905162     0.001326 
          69     0.216665     4.615420     0.908340     0.423291     0.907238     -0.01202 
          70     0.219805     4.549486     0.901820     0.370411     0.900509     -0.01335 
          71     0.222945     4.485408     0.895457     0.350659     0.895399 -5.55011e-04 
          72     0.226085     4.423111     0.891701     0.360331     0.891806 9.751234e-04 
          73     0.229225     4.362520     0.878607     0.332631     0.879035     0.003524 
          74     0.232365     4.303567     0.859261     0.282623     0.857293     -0.01398 
          75     0.235505     4.246187     0.839191     0.255604     0.835986     -0.01993 
          76     0.238646     4.190316     0.833905     0.230800     0.830704     -0.01928 
          77     0.241786     4.135896     0.823167     0.225899     0.819439     -0.02108 
          78     0.244926     4.082872     0.796868     0.204321     0.794311     -0.01259 
          79     0.248066     4.031190     0.776351     0.179473     0.775270     -0.00483 
          80     0.251206     3.980800     0.759904     0.166599     0.760257     0.001469 
          81     0.254346     3.931654     0.733047     0.160489     0.731952     -0.00410 
          82     0.257486     3.883707     0.701157     0.135477     0.701366 6.976297e-04 
          83     0.260626     3.836916     0.679698     0.122202     0.681016     0.004113 
          84     0.263766     3.791238     0.651975     0.089009     0.651814 -4.61982e-04 
          85     0.266906     3.746635     0.640321     0.101329     0.635303     -0.01395 
          86     0.270046     3.703070     0.602863     0.091104     0.599353     -0.00884 
          87     0.273186     3.660506     0.571095     0.070612     0.574007     0.006788 
          88     0.276326     3.618909     0.540401     0.088148     0.546933     0.014213 
          89     0.279466     3.578247     0.515131     0.058940     0.519886     0.009807 
          90     0.282607     3.538489     0.494313     0.074043     0.496915     0.005144 
          91     0.285747     3.499604     0.462053     0.055112     0.462966     0.001698 
          92     0.288887     3.461565     0.428590     0.052809     0.426858     -0.00303 
          93     0.292027     3.424344     0.407915     0.054215     0.410451     0.004284 
          94     0.295167     3.387915     0.386273     0.044275     0.388656     0.003883 
          95     0.298307     3.352253     0.372706     0.045127     0.373748     0.001662 
          96     0.301447     3.317333     0.343173     0.038758     0.339910     -0.00497 
          97     0.304587     3.283134     0.316393     0.038654     0.309765     -0.00970 
          98     0.307727     3.249633     0.285163     0.028791     0.280744     -0.00618 
          99     0.310867     3.216808     0.272737     0.026623     0.267409     -0.00733 
         100     0.314007     3.184640     0.250445     0.018984     0.245624     -0.00643 
         101     0.317147     3.153109     0.224156     0.009959     0.214587     -0.01233 
         102     0.320287     3.122196     0.170426     0.014472     0.163650     -0.00817 
         103     0.323427     3.091883     0.148784     0.007842     0.147076     -0.00201 
         104     0.326568     3.062154     0.158939     0.006889     0.156817     -0.00252 
         105     0.329708     3.032990     0.154565     0.022355     0.158918     0.005149 
         106     0.332848     3.004377     0.131790     0.005078     0.134916     0.003600 
         107     0.335988     2.976299     0.124390     0.010392     0.123178     -0.00138 
         108     0.339128     2.948741     0.111185     0.013064     0.111917 8.231187e-04 
         109     0.342268     2.921688     0.093046     0.009622     0.096929     0.004281 
         110     0.345408     2.895127     0.079066     0.013040     0.080517     0.001576 
         111     0.348548     2.869045     0.079883     0.013840     0.080516 6.878881e-04 
         112     0.351688     2.843428     0.058657     0.003560     0.064351     0.006049 
         113     0.354828     2.818265     0.043101 -6.83671e-04     0.044687     0.001658 
         114     0.357968     2.793544     0.039839 7.631486e-04     0.042339     0.002604 
         115     0.361108     2.769252     0.037534 2.117831e-04     0.038842     0.001359 
         116     0.364248     2.745379     0.018223     -0.00116     0.022013     0.003860 
         117     0.367388     2.721914     0.023389     0.003252     0.027952     0.004672 
         118     0.370529     2.698847     0.012683     0.014228     0.020060     0.007471 
         119     0.373669     2.676168     0.037380     -0.00318     0.038825     0.001501 
         120     0.376809     2.653867     0.048661     0.012194     0.054529     0.006169 
         121     0.379949     2.631934     0.029464     -0.00244     0.041788     0.012697 
         122     0.383089     2.610361     0.009441     -0.00886     0.026841     0.017565 
         123     0.386229     2.589138     0.002958     -0.00218     0.012821     0.009893 
         124     0.389369     2.568258     -0.01812     0.004846     -0.01403     0.004009 
         125     0.392509     2.547712     -0.02093     0.007563     -0.01825     0.002629 
         126     0.395649     2.527492     -0.00732     -0.00452     -0.00356     0.003730 
         127     0.398789     2.507590     -0.00538     -0.01189     0.004377     0.009707 
         128     0.401929     2.488000     -0.00570     -0.00569     0.004557     0.010197 
 

# version 30001

data_guinier

loop_ 
_rlnResolutionSquared #1 
_rlnLogAmplitudesOriginal #2 
_rlnLogAmplitudesWeighted #3 
_rlnLogAmplitudesSharpened #4 
_rlnLogAmplitudesIntercept #5 
    0.000000     -9.41776     -9.41776     -9.41776    -12.59659 
9.860055e-06     -9.07384     -9.07384     -9.07368    -12.59659 
3.944022e-05     -8.56071     -8.56071     -8.56029    -12.59659 
8.874050e-05     -9.53614     -9.53615     -9.53531    -12.59659 
1.577609e-04     -9.89589     -9.89591     -9.89448    -12.59659 
2.465014e-04    -10.12858    -10.12862    -10.12640    -12.59659 
3.549620e-04    -10.78816    -10.78830    -10.78509    -12.59659 
4.831427e-04    -10.88385    -10.88395    -10.87963    -12.59659 
6.310435e-04    -10.88669    -10.88677    -10.88123    -12.59659 
7.986645e-04    -11.08198    -11.08210    -11.07502    -12.59659 
9.860055e-04    -11.37346    -11.37359    -11.36476    -12.59659 
    0.001193    -11.59870    -11.59885    -11.58824    -12.59659 
    0.001420    -11.67663    -11.67684    -11.66432    -12.59659 
    0.001666    -11.84398    -11.84431    -11.82959    -12.59659 
    0.001933    -11.92633    -11.92673    -11.90961    -12.59659 
    0.002219    -12.04088    -12.04150    -12.02199    -12.59659 
    0.002524    -12.21662    -12.21767    -12.19553    -12.59659 
    0.002850    -12.26608    -12.26780    -12.24269    -12.59659 
    0.003195    -12.18789    -12.18978    -12.16155    -12.59659 
    0.003559    -12.17380    -12.17590    -12.14451    -12.59659 
    0.003944    -12.24485    -12.24681    -12.21214    -12.59659 
    0.004348    -12.41666    -12.41889    -12.38062    -12.59659 
    0.004772    -12.49886    -12.50087    -12.45885    -12.59659 
    0.005216    -12.46478    -12.46641    -12.42050    -12.59659 
    0.005679    -12.45895    -12.46047    -12.41055    -12.59659 
    0.006163    -12.49053    -12.49230    -12.43812    -12.59659 
    0.006665    -12.52354    -12.52612    -12.46746    -12.59659 
    0.007188    -12.53898    -12.54214    -12.47891    -12.59659 
    0.007730    -12.52556    -12.52867    -12.46069    -12.59659 
    0.008292    -12.52810    -12.53104    -12.45808    -12.59659 
    0.008874    -12.53190    -12.53448    -12.45642    -12.59659 
    0.009476    -12.53786    -12.54063    -12.45731    -12.59659 
    0.010097    -12.60890    -12.61232    -12.52360    -12.59659 
    0.010738    -12.70170    -12.70593    -12.61161    -12.59659 
    0.011398    -12.76096    -12.76575    -12.66559    -12.59659 
    0.012079    -12.80624    -12.81638    -12.71022    -12.59659 
    0.012779    -12.85501    -12.86520    -12.75289    -12.59659 
    0.013498    -12.88325    -12.89387    -12.77522    -12.59659 
    0.014238    -12.88440    -12.89530    -12.77014    -12.59659 
    0.014997    -12.89102    -12.90175    -12.76998    -12.59659 
    0.015776    -12.92415    -12.93623    -12.79769    -12.59659 
    0.016575    -12.97195    -12.98610    -12.84049    -12.59659 
    0.017393    -13.01077    -13.02667    -12.87377    -12.59659 
    0.018231    -13.03689    -13.05319    -12.89296    -12.59659 
    0.019089    -13.01016    -13.02555    -12.85779    -12.59659 
    0.019967    -13.00781    -13.02325    -12.84777    -12.59659 
    0.020864    -13.02397    -13.04071    -12.85733    -12.59659 
    0.021781    -13.05032    -13.06861    -12.87730    -12.59659 
    0.022718    -13.01438    -13.03362    -12.83411    -12.59659 
    0.023674    -13.02973    -13.05099    -12.84301    -12.59659 
    0.024650    -13.03827    -13.06037    -12.84373    -12.59659 
    0.025646    -13.04153    -13.06493    -12.83958    -12.59659 
    0.026662    -13.03934    -13.06372    -12.82945    -12.59659 
    0.027697    -12.99493    -13.01918    -12.77578    -12.59659 
    0.028752    -12.99263    -13.01761    -12.76497    -12.59659 
    0.029827    -12.97758    -13.00179    -12.73977    -12.59659 
    0.030921    -12.92861    -12.95155    -12.67996    -12.59659 
    0.032035    -12.92080    -12.94299    -12.66158    -12.59659 
    0.033169    -12.93175    -12.95417    -12.66275    -12.59659 
    0.034323    -12.91240    -12.93450    -12.63301    -12.59659 
    0.035496    -12.89318    -12.91491    -12.60307    -12.59659 
    0.036689    -12.84181    -12.86357    -12.54126    -12.59659 
    0.037902    -12.86024    -12.88312    -12.55015    -12.59659 
    0.039135    -12.87042    -12.89587    -12.55218    -12.59659 
    0.040387    -12.83062    -12.85785    -12.50314    -12.59659 
    0.041659    -12.80221    -12.82819    -12.46230    -12.59659 
    0.042950    -12.80894    -12.83379    -12.45649    -12.59659 
    0.044262    -12.76965    -12.79501    -12.40612    -12.59659 
    0.045593    -12.74430    -12.76986    -12.36937    -12.59659 
    0.046944    -12.77977    -12.80438    -12.39206    -12.59659 
    0.048314    -12.78276    -12.80926    -12.38483    -12.59659 
    0.049705    -12.73734    -12.76571    -12.32913    -12.59659 
    0.051115    -12.78170    -12.81118    -12.36241    -12.59659 
    0.052544    -12.81824    -12.85164    -12.39019    -12.59659 
    0.053994    -12.80785    -12.84720    -12.37298    -12.59659 
    0.055463    -12.87797    -12.92372    -12.43659    -12.59659 
    0.056952    -12.87502    -12.92249    -12.42228    -12.59659 
    0.058460    -12.87554    -12.92655    -12.41306    -12.59659 
    0.059989    -12.87717    -12.93716    -12.41025    -12.59659 
    0.061537    -12.89369    -12.96097    -12.42059    -12.59659 
    0.063104    -12.90185    -12.97519    -12.42100    -12.59659 
    0.064692    -12.88990    -12.97353    -12.40538    -12.59659 
    0.066299    -12.90379    -13.00039    -12.41807    -12.59659 
    0.067926    -12.90605    -13.01183    -12.41524    -12.59659 
    0.069573    -12.90672    -13.02500    -12.41398    -12.59659 
    0.071239    -12.88712    -13.01089    -12.38521    -12.59659 
    0.072925    -12.90479    -13.04715    -12.40661    -12.59659 
    0.074631    -12.88403    -13.04344    -12.38792    -12.59659 
    0.076356    -12.88394    -13.06111    -12.39053    -12.59659 
    0.078101    -12.88194    -13.07479    -12.38885    -12.59659 
    0.079866    -12.86703    -13.07358    -12.37211    -12.59659 
    0.081651    -12.86974    -13.09913    -12.38188    -12.59659 
    0.083456    -12.85814    -13.11354    -12.38053    -12.59659 
    0.085280    -12.85981    -13.13264    -12.38360    -12.59659 
    0.087123    -12.84883    -13.14117    -12.37600    -12.59659 
    0.088987    -12.84431    -13.14961    -12.36820    -12.59659 
    0.090870    -12.83300    -13.16871    -12.37078    -12.59659 
    0.092773    -12.82056    -13.18682    -12.37212    -12.59659 
    0.094696    -12.81244    -13.21866    -12.38696    -12.59659 
    0.096638    -12.80851    -13.23215    -12.38332    -12.59659 
    0.098601    -12.79696    -13.25440    -12.38844    -12.59659 
    0.100582    -12.79812    -13.30038    -12.41703    -12.59659 
    0.102584    -12.76406    -13.38089    -12.47992    -12.59659 
    0.104605    -12.76900    -13.44441    -12.52567    -12.59659 
    0.106646    -12.74836    -13.39516    -12.45860    -12.59659 
    0.108707    -12.73933    -13.39818    -12.44354    -12.59659 
    0.110788    -12.72536    -13.45396    -12.48090    -12.59659 
    0.112888    -12.71014    -13.46435    -12.47296    -12.59659 
    0.115008    -12.69802    -13.50244    -12.49245    -12.59659 
    0.117147    -12.68528    -13.57052    -12.54167    -12.59659 
    0.119307    -12.66119    -13.62140    -12.57348    -12.59659 
    0.121486    -12.65719    -13.61264    -12.54578    -12.59659 
    0.123685    -12.63690    -13.73686    -12.65069    -12.59659 
    0.125903    -12.63185    -13.87848    -12.77283    -12.59659 
    0.128141    -12.61863    -13.90305    -12.77761    -12.59659 
    0.130399    -12.59661    -13.90971    -12.76455    -12.59659 
    0.132677    -12.59407    -14.25905    -13.09390    -12.59659 
    0.134974    -12.57109    -14.11382    -12.92841    -12.59659 
    0.137291    -12.56026    -14.40372    -13.19794    -12.59659 
    0.139628    -12.54679    -13.86187    -12.63579    -12.59659 
    0.141985    -12.52841    -13.71703    -12.47021    -12.59659 
    0.144361    -12.52156    -13.95179    -12.68405    -12.59659 
    0.146757    -12.50273    -14.49219    -13.20335    -12.59659 
    0.149173    -12.49860    -15.06510    -13.75502    -12.59659 
    0.151608    -12.46048    -99.00000    -99.00000    -12.59659 
    0.154063    -12.45745    -99.00000    -99.00000    -12.59659 
    0.156538    -12.41749    -99.00000    -99.00000    -12.59659 
    0.159033    -12.33122    -99.00000    -99.00000    -12.59659 
    0.161547    -12.11826    -99.00000    -99.00000    -12.59659 
 
